# Version 1.00
#
freq[Hz]	Trc1_S11[dB]	Trc2_S12[dB]	Trc3_S21[dB]	Trc4_S22[dB]	
1.500000000000000E+005	-4.278959754976629E-001	-8.594785900694080E+001	-8.844300985018298E+001	-1.782703816728120E+000	
4.157715430861724E+006	-4.453895945848450E-001	-5.854936091557618E+001	-5.863216457108072E+001	-1.812079889380702E+000	
8.165430861723447E+006	-4.498149084921074E-001	-5.289842181389851E+001	-5.286070870816035E+001	-1.813090160801961E+000	
1.217314629258517E+007	-4.469378638613307E-001	-4.941237314542688E+001	-4.926221383797196E+001	-1.814871439871127E+000	
1.618086172344689E+007	-4.444822023550729E-001	-4.687078055248648E+001	-4.687220104452691E+001	-1.816724380440705E+000	
2.018857715430862E+007	-4.379753269006032E-001	-4.490199734509142E+001	-4.485499682739847E+001	-1.815856258091881E+000	
2.419629258517034E+007	-4.418394139718727E-001	-4.026673847147400E+001	-4.026238840373876E+001	-1.775145853200526E+000	
2.820400801603207E+007	-4.278650064687701E-001	-4.222554227267107E+001	-4.219744184662398E+001	-1.807840712314527E+000	
3.221172344689379E+007	-4.250733780390055E-001	-4.107676010405354E+001	-4.104216332394264E+001	-1.814304109378228E+000	
3.621943887775552E+007	-4.203737659872829E-001	-4.007934805933379E+001	-4.005670514658720E+001	-1.822366926115848E+000	
4.022715430861723E+007	-4.142629994170240E-001	-3.920165237684909E+001	-3.909035947412704E+001	-1.831221392497333E+000	
4.423486973947896E+007	-4.071449172631523E-001	-3.836614186207462E+001	-3.824960771020013E+001	-1.836830576459095E+000	
4.824258517034069E+007	-3.986527002592553E-001	-3.758731891502614E+001	-3.747078881358016E+001	-1.839921637155861E+000	
5.225030060120241E+007	-3.910279304051577E-001	-3.691125476392048E+001	-3.675532185356970E+001	-1.843628877736341E+000	
5.625801603206413E+007	-3.830614603733324E-001	-3.647238524648255E+001	-3.628963183019221E+001	-1.844716358088757E+000	
6.026573146292585E+007	-3.723888297533148E-001	-3.602556013480687E+001	-3.581518538735379E+001	-1.844480298964013E+000	
6.427344689378758E+007	-3.627938399662513E-001	-3.531135642576972E+001	-3.508614611232078E+001	-1.847655045345535E+000	
6.828116232464930E+007	-3.530080975195470E-001	-3.475070557215394E+001	-3.449129750062463E+001	-1.853023226677694E+000	
7.228887775551103E+007	-3.436905356670104E-001	-3.424366936896135E+001	-3.395697931293488E+001	-1.858141947920108E+000	
7.629659318637274E+007	-3.355747555429270E-001	-3.377396633635377E+001	-3.344742730485086E+001	-1.865113316754637E+000	
8.030430861723447E+007	-3.261549152842414E-001	-3.331256888403537E+001	-3.296981217178777E+001	-1.871578527873036E+000	
8.431202404809620E+007	-3.151301003704060E-001	-3.293066426968504E+001	-3.256569030170632E+001	-1.877193225031701E+000	
8.831973947895792E+007	-3.036094718537885E-001	-3.252599376769695E+001	-3.214071028840299E+001	-1.883823123833760E+000	
9.232745490981965E+007	-2.909851027510325E-001	-3.208495219559737E+001	-3.168652826826651E+001	-1.889520999769243E+000	
9.633517034068137E+007	-2.791117923348984E-001	-3.167440922911705E+001	-3.125386657501013E+001	-1.897603025900338E+000	
1.003428857715431E+008	-2.715396153952287E-001	-3.121021337056321E+001	-3.077475611102930E+001	-1.904279718846688E+000	
1.043506012024048E+008	-2.660218501380851E-001	-3.068000306305049E+001	-3.020922010179098E+001	-1.909342935983717E+000	
1.083583166332665E+008	-2.685942857300809E-001	-2.987027425655531E+001	-2.937969707797725E+001	-1.909276611448152E+000	
1.123660320641283E+008	-2.444785515868762E-001	-2.929964739312738E+001	-2.879778175601031E+001	-1.901255512059931E+000	
1.163737474949900E+008	-2.182323511070650E-001	-2.904737135168555E+001	-2.849709527358337E+001	-1.905963299989874E+000	
1.203814629258517E+008	-1.980795660464484E-001	-2.877590587848042E+001	-2.818306022863502E+001	-1.915754498167355E+000	
1.243891783567134E+008	-1.911711776390705E-001	-2.847764519537359E+001	-2.783175697481484E+001	-1.929910807017375E+000	
1.283968937875752E+008	-2.043190385307687E-001	-2.817972606368097E+001	-2.748486041352503E+001	-1.948541605058384E+000	
1.324046092184369E+008	-2.679973038290391E-001	-2.812226169586432E+001	-2.738211376736491E+001	-1.974622895007207E+000	
1.364123246492986E+008	-3.058275915141014E-001	-2.973616702808563E+001	-2.895228736570221E+001	-1.975761169683197E+000	
1.404200400801603E+008	-1.770520330573556E-001	-2.984866261807298E+001	-2.901005595453454E+001	-1.961414667558089E+000	
1.444277555110221E+008	-7.447979136832394E-002	-2.903374626807259E+001	-2.811667931223442E+001	-1.971796713968835E+000	
1.484354709418838E+008	-2.445526148260904E-002	-2.838248341852043E+001	-2.737315579840103E+001	-1.983065519681473E+000	
1.524431863727455E+008	1.397528075150502E-002	-2.792530849160319E+001	-2.683294100388014E+001	-1.994748149466403E+000	
1.564509018036072E+008	5.007814284607952E-002	-2.760939331022696E+001	-2.642545803783462E+001	-2.004688139344392E+000	
1.604586172344689E+008	8.596809246258032E-002	-2.737231152404661E+001	-2.611039463947272E+001	-2.017701829976062E+000	
1.644663326653307E+008	1.205220840739189E-001	-2.719604650667424E+001	-2.586524739852612E+001	-2.033322489784670E+000	
1.684740480961924E+008	1.511248095626984E-001	-2.707220767935882E+001	-2.568893108068426E+001	-2.046200662149712E+000	
1.724817635270541E+008	1.823757579584428E-001	-2.689018545108355E+001	-2.547169887529358E+001	-2.051518695570849E+000	
1.764894789579158E+008	2.135823114016259E-001	-2.670329635446465E+001	-2.525673168610199E+001	-2.059546838629841E+000	
1.804971943887776E+008	2.414057464668095E-001	-2.655238804820151E+001	-2.508648491452144E+001	-2.070893863951723E+000	
1.845049098196393E+008	2.737424205011845E-001	-2.640604441862930E+001	-2.492305565806126E+001	-2.077332467129287E+000	
1.885126252505010E+008	3.095404885536708E-001	-2.617859628410833E+001	-2.468232285648673E+001	-2.089068910492362E+000	
1.925203406813628E+008	3.439105694814853E-001	-2.598379206690142E+001	-2.445824545991976E+001	-2.097712851387585E+000	
1.965280561122245E+008	3.746796599371182E-001	-2.578520750105778E+001	-2.422377344486078E+001	-2.105159848926409E+000	
2.005357715430862E+008	4.060273191734679E-001	-2.558576898262224E+001	-2.397683123660680E+001	-2.114802823922971E+000	
2.045434869739479E+008	4.369383729277431E-001	-2.542917978547266E+001	-2.376170425659303E+001	-2.128072200601043E+000	
2.085512024048096E+008	4.725673495613990E-001	-2.530950651779262E+001	-2.356644488516562E+001	-2.143228283830569E+000	
2.125589178356714E+008	5.156885340935146E-001	-2.523006974828328E+001	-2.339105596257089E+001	-2.152974370623462E+000	
2.165666332665331E+008	5.623909229698213E-001	-2.505360481080661E+001	-2.309819523806853E+001	-2.166626434243008E+000	
2.205743486973948E+008	6.103784199650250E-001	-2.488144219873083E+001	-2.279666085258612E+001	-2.190895013844445E+000	
2.245820641282565E+008	6.624480975408045E-001	-2.481679928139769E+001	-2.258459544043905E+001	-2.222097281309045E+000	
2.285897795591182E+008	7.224733122348107E-001	-2.484694802017426E+001	-2.244851420701138E+001	-2.242333209878808E+000	
2.325974949899800E+008	7.819149678876903E-001	-2.486092097859153E+001	-2.228153290252963E+001	-2.251261222074638E+000	
2.366052104208417E+008	8.420348858312803E-001	-2.481933836508151E+001	-2.204458634894969E+001	-2.251339977247977E+000	
2.406129258517034E+008	8.976824638159813E-001	-2.466340277300283E+001	-2.168783024304726E+001	-2.244045732942969E+000	
2.446206412825652E+008	9.512890737524090E-001	-2.444627908353866E+001	-2.128051948979518E+001	-2.244071086366680E+000	
2.486283567134269E+008	1.005664349107834E+000	-2.421833235492337E+001	-2.086794290996470E+001	-2.254273892654332E+000	
2.526360721442886E+008	1.058565685079218E+000	-2.402865623622773E+001	-2.051574518173025E+001	-2.266533599275498E+000	
2.566437875751503E+008	1.109552166392805E+000	-2.390193307637114E+001	-2.026519144748196E+001	-2.264855527209119E+000	
2.606515030060120E+008	1.166473887122046E+000	-2.379496380676707E+001	-2.007065365865440E+001	-2.265419160879699E+000	
2.646592184368738E+008	1.242132044460207E+000	-2.369486785176356E+001	-1.991024418801068E+001	-2.272907685769168E+000	
2.686669338677355E+008	1.318477590392980E+000	-2.356171267689000E+001	-1.974968545240625E+001	-2.280684361680845E+000	
2.726746492985972E+008	1.384266942588918E+000	-2.335917198106378E+001	-1.954762217557443E+001	-2.286404913365018E+000	
2.766823647294589E+008	1.436796023849456E+000	-2.314926014645816E+001	-1.936368509313091E+001	-2.295340764915039E+000	
2.806900801603206E+008	1.496475572576729E+000	-2.294276489752591E+001	-1.918518028304041E+001	-2.310153015341978E+000	
2.846977955911824E+008	1.559319142992076E+000	-2.275620164194906E+001	-1.901015170008658E+001	-2.326195601859743E+000	
2.887055110220441E+008	1.625848761854747E+000	-2.258867291526541E+001	-1.882622811811350E+001	-2.343151270313463E+000	
2.927132264529058E+008	1.692796921665630E+000	-2.243622368128001E+001	-1.862890096547508E+001	-2.356620033605864E+000	
2.967209418837676E+008	1.752765362951246E+000	-2.229351211883442E+001	-1.841203404140257E+001	-2.371255015423745E+000	
3.007286573146293E+008	1.812218700314593E+000	-2.217247116679065E+001	-1.816526548329666E+001	-2.387258739161466E+000	
3.047363727454910E+008	1.867474848614989E+000	-2.207182351362689E+001	-1.790424367335810E+001	-2.408598272762624E+000	
3.087440881763527E+008	1.925832593615966E+000	-2.202852968529138E+001	-1.764668817641911E+001	-2.431452915222290E+000	
3.127518036072145E+008	1.978189913460635E+000	-2.201975432637848E+001	-1.738115095118622E+001	-2.455763357469434E+000	
3.167595190380762E+008	2.034307050170381E+000	-2.203180304779176E+001	-1.708994860907793E+001	-2.478259509380902E+000	
3.207672344689379E+008	2.091366678068062E+000	-2.212115915534600E+001	-1.682783613401719E+001	-2.502440815654710E+000	
3.247749498997996E+008	2.152478509684028E+000	-2.224107711971094E+001	-1.655522103081981E+001	-2.527115296713574E+000	
3.287826653306614E+008	2.216198777613034E+000	-2.238000805973054E+001	-1.627688361423115E+001	-2.548316059370578E+000	
3.327903807615231E+008	2.273374346015561E+000	-2.255428837183393E+001	-1.603754615886016E+001	-2.572264939278091E+000	
3.367980961923848E+008	2.322189277917746E+000	-2.271100612094863E+001	-1.582704956594477E+001	-2.593090035521341E+000	
3.408058116232465E+008	2.364938644419571E+000	-2.280196391089930E+001	-1.563416811827685E+001	-2.612127205673852E+000	
3.448135270541082E+008	2.401711866916873E+000	-2.274348434994110E+001	-1.542178572399016E+001	-2.631566466920695E+000	
3.488212424849700E+008	2.440944428220707E+000	-2.250070775201389E+001	-1.518566058223540E+001	-2.657379350818062E+000	
3.528289579158317E+008	2.484509692337146E+000	-2.208749923407871E+001	-1.492351039838635E+001	-2.685125755775311E+000	
3.568366733466934E+008	2.531170384634485E+000	-2.161195444982319E+001	-1.470904911376519E+001	-2.719647537867040E+000	
3.608443887775551E+008	2.573468709924914E+000	-2.117203833273297E+001	-1.459902357213868E+001	-2.760648407604720E+000	
3.648521042084168E+008	2.590393932028960E+000	-2.075505925386642E+001	-1.452949788463841E+001	-2.812896634485961E+000	
3.688598196392786E+008	2.577007002146765E+000	-2.043246911113376E+001	-1.452369113770833E+001	-2.870562028199794E+000	
3.728675350701403E+008	2.537395452606075E+000	-2.026870153568843E+001	-1.461642245205645E+001	-2.932092317063456E+000	
3.768752505010020E+008	2.509860957221174E+000	-2.026804120364468E+001	-1.478256727293048E+001	-2.994759428102709E+000	
3.808829659318637E+008	2.468230215546910E+000	-2.037229844895494E+001	-1.498679550922902E+001	-3.046393169452438E+000	
3.848906813627255E+008	2.371978559062579E+000	-2.046518418600940E+001	-1.511702846030789E+001	-3.063269229594282E+000	
3.888983967935872E+008	2.261209018425874E+000	-2.073645542592101E+001	-1.535332481429159E+001	-3.045124334414084E+000	
3.929061122244489E+008	2.139811081418063E+000	-2.108771717249349E+001	-1.557681621171584E+001	-3.008161267693590E+000	
3.969138276553106E+008	1.983532258635391E+000	-2.157934430086747E+001	-1.586806535077995E+001	-2.978556535538121E+000	
4.009215430861723E+008	1.805787632360992E+000	-2.212598835604651E+001	-1.615420418085666E+001	-2.954308804335522E+000	
4.049292585170341E+008	1.552391519387810E+000	-2.261301410875428E+001	-1.640880559261546E+001	-2.939562435257723E+000	
4.089369739478958E+008	1.240235066196239E+000	-2.305225883249729E+001	-1.667544622997208E+001	-2.938906486567537E+000	
4.129446893787575E+008	8.606206213736163E-001	-2.333520547291379E+001	-1.690646205902733E+001	-2.946151072508786E+000	
4.169524048096193E+008	4.793142952258313E-001	-2.335347054749069E+001	-1.694815187313893E+001	-2.956989982274617E+000	
4.209601202404810E+008	2.182492550972881E-001	-2.312836952249624E+001	-1.677859806318492E+001	-2.957068572581481E+000	
4.249678356713427E+008	-5.310465751126141E-003	-2.268976957919487E+001	-1.648748548045344E+001	-2.962055855904482E+000	
4.289755511022044E+008	-1.335848396058454E-001	-2.197013199468107E+001	-1.596936188947989E+001	-2.977411418244914E+000	
4.329832665330662E+008	-2.141655834662527E-001	-2.111695579323505E+001	-1.540175855244321E+001	-2.998110590349680E+000	
4.369909819639279E+008	-1.963372434986547E-001	-2.021643557627071E+001	-1.480333415536765E+001	-3.024685490854415E+000	
4.409986973947896E+008	-4.129838043442452E-002	-1.940437483132910E+001	-1.435392727801598E+001	-3.041193931127570E+000	
4.450064128256514E+008	2.757116022216336E-002	-1.886539251847410E+001	-1.428317128208769E+001	-3.050078797176209E+000	
4.490141282565131E+008	1.572769515957775E-002	-1.858283726660867E+001	-1.446172219835940E+001	-3.060910709118371E+000	
4.530218436873748E+008	-7.368137859563818E-002	-1.846546247336152E+001	-1.476080622507849E+001	-3.082495643096568E+000	
4.570295591182365E+008	-2.207408765720295E-001	-1.838686142248987E+001	-1.502427061611230E+001	-3.112090868310853E+000	
4.610372745490982E+008	-4.228137065482570E-001	-1.845342359325042E+001	-1.535062952706844E+001	-3.143079890160129E+000	
4.650449899799600E+008	-6.601818270278870E-001	-1.853220210074825E+001	-1.560529267258232E+001	-3.191654948259587E+000	
4.690527054108217E+008	-9.099530509515102E-001	-1.861090555070387E+001	-1.577813085102801E+001	-3.240472713313797E+000	
4.730604208416834E+008	-1.177316724559147E+000	-1.862743536034102E+001	-1.582226674282741E+001	-3.290743434107361E+000	
4.770681362725451E+008	-1.433990177658314E+000	-1.857539730138429E+001	-1.572894653817735E+001	-3.344729140044622E+000	
4.810758517034068E+008	-1.665342020207226E+000	-1.849002989622476E+001	-1.556243896933086E+001	-3.394096970223495E+000	
4.850835671342686E+008	-1.935178307953449E+000	-1.845823877244094E+001	-1.544989223645189E+001	-3.420094441994455E+000	
4.890912825651303E+008	-2.231544785411395E+000	-1.837337737207707E+001	-1.528266589681218E+001	-3.410839917759938E+000	
4.930989979959920E+008	-2.507090473776475E+000	-1.835148801866223E+001	-1.519772281666097E+001	-3.365826070072654E+000	
4.971067134268537E+008	-2.803972235846414E+000	-1.833146682034349E+001	-1.516372708449696E+001	-3.316991298127651E+000	
5.011144288577154E+008	-3.094164710847955E+000	-1.824700514450098E+001	-1.512385668436882E+001	-3.283373720123465E+000	
5.051221442885772E+008	-3.408398206086173E+000	-1.801194468359389E+001	-1.498871983473976E+001	-3.262444922168891E+000	
5.091298597194389E+008	-3.670807278148186E+000	-1.772266348500517E+001	-1.483702697445021E+001	-3.250405597680850E+000	
5.131375751503006E+008	-3.905556302453826E+000	-1.744000471972397E+001	-1.475079962841172E+001	-3.245703416311004E+000	
5.171452905811623E+008	-4.161489184897596E+000	-1.714384481027885E+001	-1.469559369230649E+001	-3.250373878622461E+000	
5.211530060120240E+008	-4.387576161951474E+000	-1.680937014154694E+001	-1.459488211077687E+001	-3.257494538300839E+000	
5.251607214428858E+008	-4.548985254523170E+000	-1.645727605203247E+001	-1.449012172546374E+001	-3.274470854868695E+000	
5.291684368737475E+008	-4.701517570314114E+000	-1.617265066827570E+001	-1.446277971739084E+001	-3.295526992481279E+000	
5.331761523046092E+008	-4.818104696866448E+000	-1.597797650380462E+001	-1.453043180704738E+001	-3.313329469681022E+000	
5.371838677354710E+008	-4.944945619806591E+000	-1.590549835401288E+001	-1.470278338601098E+001	-3.325744904581270E+000	
5.411915831663327E+008	-5.026943954739516E+000	-1.599806011623131E+001	-1.503188378520071E+001	-3.339000064767645E+000	
5.451992985971944E+008	-5.147162190139643E+000	-1.621577538694570E+001	-1.547358475543670E+001	-3.348917064839411E+000	
5.492070140280561E+008	-5.280236832958211E+000	-1.650968297230034E+001	-1.596473694672194E+001	-3.361041463365132E+000	
5.532147294589179E+008	-5.427716343883113E+000	-1.675547639963348E+001	-1.635802176036103E+001	-3.369430902336441E+000	
5.572224448897796E+008	-5.552694426245240E+000	-1.697428965111376E+001	-1.667954925402039E+001	-3.384515248491577E+000	
5.612301603206413E+008	-5.668905502090984E+000	-1.718581539806455E+001	-1.695779698056618E+001	-3.396179561710158E+000	
5.652378757515030E+008	-5.771185187943848E+000	-1.739630408567540E+001	-1.720514059439181E+001	-3.405431788372883E+000	
5.692455911823647E+008	-5.897117259514558E+000	-1.760657327657214E+001	-1.742598641723755E+001	-3.412084473938764E+000	
5.732533066132265E+008	-6.003918124628829E+000	-1.781386881933846E+001	-1.762236744429465E+001	-3.416218874028590E+000	
5.772610220440882E+008	-6.139817050038650E+000	-1.804902819669343E+001	-1.785074625188634E+001	-3.415268638004689E+000	
5.812687374749500E+008	-6.287876461072814E+000	-1.821304993801034E+001	-1.800275870593500E+001	-3.414424979863917E+000	
5.852764529058117E+008	-6.425149343272880E+000	-1.836361446210255E+001	-1.816342786759663E+001	-3.414682150222375E+000	
5.892841683366734E+008	-6.573354437596041E+000	-1.845368746986891E+001	-1.829358118801444E+001	-3.428151471072276E+000	
5.932918837675351E+008	-6.714002084556955E+000	-1.845452739685432E+001	-1.837532939126845E+001	-3.449314531436695E+000	
5.972995991983968E+008	-6.871795820855538E+000	-1.843468370039275E+001	-1.848537895359089E+001	-3.467522457090630E+000	
6.013073146292585E+008	-7.029757575124203E+000	-1.841412378171119E+001	-1.862662580624263E+001	-3.483277979853281E+000	
6.053150300601202E+008	-7.187784701589556E+000	-1.838040984555075E+001	-1.879019100781394E+001	-3.499249945165659E+000	
6.093227454909819E+008	-7.352106268680450E+000	-1.834214533289563E+001	-1.896430388221588E+001	-3.518497503002074E+000	
6.133304609218438E+008	-7.515988436051590E+000	-1.841643565623843E+001	-1.925910179280319E+001	-3.545408227471835E+000	
6.173381763527055E+008	-7.681788290360085E+000	-1.855924732895733E+001	-1.962136161965664E+001	-3.581379080057156E+000	
6.213458917835672E+008	-7.851242245606869E+000	-1.873845915990732E+001	-2.001377453588340E+001	-3.627357712384557E+000	
6.253536072144289E+008	-8.025077773830310E+000	-1.888560113914977E+001	-2.036708739036191E+001	-3.674188590967480E+000	
6.293613226452906E+008	-8.207318745713620E+000	-1.910444201628458E+001	-2.076836478382400E+001	-3.706993569835614E+000	
6.333690380761523E+008	-8.402996536922803E+000	-1.932363108383170E+001	-2.116054365440476E+001	-3.751460679242324E+000	
6.373767535070140E+008	-8.605178353853596E+000	-1.944852933540683E+001	-2.144683799367196E+001	-3.813315805158388E+000	
6.413844689378758E+008	-8.819084444823670E+000	-1.951896448839819E+001	-2.166351921291798E+001	-3.872907537487260E+000	
6.453921843687375E+008	-9.036100435301185E+000	-1.953857602095160E+001	-2.181055624072113E+001	-3.921664294894814E+000	
6.493998997995992E+008	-9.257842100883041E+000	-1.955281746370596E+001	-2.193681305570607E+001	-3.959925865880906E+000	
6.534076152304610E+008	-9.484342351782917E+000	-1.955035775566320E+001	-2.201807844943744E+001	-3.987228557215457E+000	
6.574153306613227E+008	-9.712444941186302E+000	-1.955243310244574E+001	-2.208837592057829E+001	-3.998557582574898E+000	
6.614230460921844E+008	-9.943080555305546E+000	-1.950969457720915E+001	-2.208610376867360E+001	-4.016047503882517E+000	
